399.264912 1.645406 
401.193728 1.704182 
403.122544 1.704180 
405.051360 1.758325 
406.980176 1.724522 
408.908992 1.811367 
410.837808 1.784405 
412.766624 1.827077 
414.695440 1.831147 
416.624256 1.897713 
418.553072 1.879656 
420.481888 1.929251 
422.410704 1.906639 
424.339520 1.957398 
426.268336 1.935287 
428.197152 1.954381 
430.125968 1.942671 
432.054784 1.979206 
433.983600 1.978931 
435.912416 1.978248 
437.841232 2.002592 
439.770048 2.023691 
441.698864 2.028686 
443.627680 2.040519 
445.556496 2.015607 
447.485312 2.034330 
449.414128 2.024587 
451.342944 2.025254 
453.271760 2.026377 
455.200576 2.044731 
457.129392 2.042418 
459.058208 2.014436 
460.987024 2.012629 
462.915840 2.010434 
464.844656 2.024794 
466.773472 2.105161 
468.702288 2.048954 
470.631104 2.060915 
472.559920 2.075222 
474.488736 2.099211 
476.417552 2.095440 
478.346368 2.114303 
480.275184 2.086905 
482.204000 2.159973 
484.132816 2.116170 
486.061632 2.125593 
487.990448 2.129005 
489.919264 2.177895 
491.848080 2.158540 
493.776896 2.192994 
495.705712 2.123713 
497.634528 2.200952 
499.563344 2.197253 
501.492160 2.249984 
503.420976 2.207065 
505.349792 2.257841 
507.278608 2.228763 
509.207424 2.304509 
511.136240 2.281870 
513.065056 2.301618 
514.993872 2.289113 
516.922688 2.299904 
518.851504 2.319405 
520.780320 2.372066 
522.709136 2.398653 
524.637952 2.500411 
526.566768 2.460090 
528.495584 2.592893 
530.424400 2.443255 
532.353216 2.622083 
534.282032 2.655163 
536.210848 2.541902 
538.139664 2.564442 
540.068480 2.670388 
541.997296 2.633598 
543.926112 2.671880 
545.854928 2.638080 
547.783744 2.760391 
549.712560 2.694906 
551.641376 2.733895 
553.570192 2.713432 
555.499008 2.814268 
557.427824 2.725188 
559.356640 2.850880 
561.285456 2.752589 
563.214272 3.047572 
565.143088 2.815995 
567.071904 2.971840 
569.000720 2.809162 
570.929536 3.009333 
572.858352 2.964132 
574.787168 3.394128 
576.715984 2.897445 
578.644800 3.204749 
580.573616 2.769968 
582.502432 2.779514 
584.431248 4.006561 
586.360064 2.851725 
588.288880 3.309431 
590.217696 2.647800 
592.146512 3.003785 
594.075328 2.488388 
596.004144 2.567984 
597.932960 2.949650 
599.861776 2.482190 
601.790592 2.313094 
603.719408 2.363439 
605.648224 2.428696 
607.577040 2.497615 
609.505856 2.582769 
611.434672 2.439210 
613.363488 2.423418 
615.292304 2.320902 
617.221120 2.298577 
619.149936 2.293390 
621.078752 2.250834 
623.007568 2.236245 
624.936384 2.216627 
626.865200 2.148708 
628.794016 2.133531 
630.722832 2.098194 
632.651648 2.075801 
634.580464 2.071118 
636.509280 2.047764 
638.438096 2.008786 
640.366912 2.002879 
642.295728 1.970255 
644.224544 1.949931 
646.153360 1.935548 
648.082176 1.919383 
650.010992 1.896555 
651.939808 1.887847 
653.868624 1.864420 
655.797440 1.852366 
657.726256 1.831205 
659.655072 1.827115 
661.583888 1.803744 
663.512704 1.793626 
665.441520 1.772897 
667.370336 1.768045 
669.299152 1.749079 
671.227968 1.741780 
673.156784 1.728174 
675.085600 1.714971 
677.014416 1.706659 
678.943232 1.699111 
680.872048 1.690149 
682.800864 1.684556 
684.729680 1.680507 
686.658496 1.672967 
688.587312 1.670195 
690.516128 1.665414 
692.444944 1.660469 
694.373760 1.661323 
696.302576 1.659212 
698.231392 1.663410 
700.160208 1.660904 
702.089024 1.665588 
704.017840 1.669074 
705.946656 1.673613 
707.875472 1.678525 
709.804288 1.686159 
711.733104 1.690104 
713.661920 1.700638 
715.590736 1.712508 
717.519552 1.723371 
719.448368 1.737918 
721.377184 1.746255 
723.306000 1.761275 
725.234816 1.777922 
727.163632 1.791500 
729.092448 1.813693 
731.021264 1.832041 
732.950080 1.853520 
734.878896 1.874244 
736.807712 1.897752 
738.736528 1.922756 
740.665344 1.950212 
742.594160 1.973469 
744.522976 2.004571 
746.451792 2.026376 
748.380608 2.060841 
750.309424 2.092928 
752.238240 2.124097 
754.167056 2.159023 
756.095872 2.195306 
758.024688 2.239642 
759.953504 2.283648 
761.882320 2.332440 
763.811136 2.407513 
765.739952 2.493583 
767.668768 2.605380 
769.597584 2.794033 
771.526400 3.099576 
773.455216 3.354417 
775.384032 3.203120 
777.312848 3.018876 
779.241664 2.931865 
781.170480 2.861193 
783.099296 2.831216 
785.028112 2.809413 
786.956928 2.777575 
788.885744 2.785684 
790.814560 2.777478 
792.743376 2.774203 
794.672192 2.763982 
796.601008 2.777915 
798.529824 2.778277 
800.458640 2.766583 
802.387456 2.787766 
804.316272 2.778259 
806.245088 2.785283 
808.173904 2.796023 
810.102720 2.788249 
812.031536 2.783001 
813.960352 2.794025 
815.889168 2.775992 
817.817984 2.800480 
819.746800 2.804839 
821.675616 2.824980 
823.604432 2.809368 
825.533248 2.817891 
827.462064 2.820249 
829.390880 2.809571 
831.319696 2.832334 
833.248512 2.841028 
835.177328 2.831194 
837.106144 2.816483 
839.034960 2.865410 
840.963776 2.859856 
842.892592 2.899455 
844.821408 2.915182 
846.750224 2.977446 
848.679040 3.072693 
850.607856 3.156137 
852.536672 3.376728 
854.465488 3.466099 
856.394304 3.145060 
858.323120 2.858446 
860.251936 2.670948 
862.180752 2.537026 
864.109568 2.429673 
866.038384 2.351767 
867.967200 2.294220 
869.896016 2.240696 
871.824832 2.201397 
873.753648 2.170083 
875.682464 2.150157 
877.611280 2.133913 
879.540096 2.117966 
881.468912 2.106343 
883.397728 2.092545 
885.326544 2.084403 
887.255360 2.077646 
889.184176 2.066827 
891.112992 2.057694 
893.041808 2.047540 
894.970624 2.040716 
896.899440 2.034560 
898.828256 2.025426 
900.757072 2.019171 
902.685888 2.013592 
904.614704 2.010752 
906.543520 2.006975 
908.472336 2.007090 
910.401152 2.011833 
912.329968 2.016065 
914.258784 2.024858 
916.187600 2.028056 
918.116416 2.039897 
920.045232 2.053657 
921.974048 2.064229 
923.902864 2.074181 
925.831680 2.084336 
927.760496 2.092463 
929.689312 2.094138 
931.618128 2.096875 
933.546944 2.096349 
935.475760 2.098620 
937.404576 2.092928 
939.333392 2.099065 
941.262208 2.094720 
943.191024 2.107311 
945.119840 2.122156 
947.048656 2.143426 
948.977472 2.173773 
950.906288 2.206894 
952.835104 2.255268 
954.763920 2.314186 
956.692736 2.395440 
958.621552 2.480654 
960.550368 2.598283 
962.479184 2.725304 
964.408000 2.904156 
966.336816 3.111537 
968.265632 3.353476 
970.194448 3.613845 
972.123264 3.450595 
974.052080 3.257389 
975.980896 3.151835 
977.909712 3.130311 
979.838528 3.128002 
981.767344 3.122445 
983.696160 3.148294 
985.624976 3.216838 
987.553792 3.234472 
989.482608 3.358120 
991.411424 3.295485 
993.340240 3.201242 
995.269056 3.140757 
997.197872 3.046608 
999.126688 2.968040 
1001.055504 2.940926 
1002.984320 2.890461 
1004.913136 2.877160 
1006.841952 2.865991 
1008.770768 2.857276 
1010.699584 2.863601 
1012.628400 2.854325 
1014.557216 2.853563 
1016.486032 2.848559 
1018.414848 2.849566 
1020.343664 2.851828 
1022.272480 2.848948 
1024.201296 2.858232 
1026.130112 2.842510 
1028.058928 2.845902 
1029.987744 2.828957 
1031.916560 2.844186 
1033.845376 2.831410 
1035.774192 2.829729 
1037.703008 2.821524 
1039.631824 2.832194 
1041.560640 2.810637 
1043.489456 2.808438 
1045.418272 2.802654 
1047.347088 2.797972 
1049.275904 2.798283 
1051.204720 2.800154 
1053.133536 2.791648 
1055.062352 2.768096 
1056.991168 2.761931 
1058.919984 2.782340 
1060.848800 2.746723 
1062.777616 2.761760 
1064.706432 2.772936 
1066.635248 2.771036 
1068.564064 2.776467 
1070.492880 2.769202 
1072.421696 2.744286 
1074.350512 2.754817 
1076.279328 2.749444 
1078.208144 2.742196 
1080.136960 2.765705 
1082.065776 2.753473 
1083.994592 2.744427 
1085.923408 2.748701 
1087.852224 2.747600 
1089.781040 2.754118 
1091.709856 2.741315 
1093.638672 2.743634 
1095.567488 2.751295 
1097.496304 2.737467 
1099.425120 2.742131 
1101.353936 2.736421 
1103.282752 2.733842 
1105.211568 2.725929 
1107.140384 2.739346 
1109.069200 2.741263 
1110.998016 2.749024 
1112.926832 2.756074 
1114.855648 2.763566 
1116.784464 2.749942 
1118.713280 2.748425 
1120.642096 2.774425 
1122.570912 2.748597 
1124.499728 2.751158 
1126.428544 2.748975 
1128.357360 2.754878 
1130.286176 2.749161 
1132.214992 2.758024 
1134.143808 2.762405 
1136.072624 2.767331 
1138.001440 2.783004 
1139.930256 2.763075 
1141.859072 2.761041 
1143.787888 2.749832 
1145.716704 2.770883 
1147.645520 2.756625 
1149.574336 2.762824 
1151.503152 2.743961 
1153.431968 2.776300 
1155.360784 2.771848 
1157.289600 2.767232 
1159.218416 2.772090 
1161.147232 2.791493 
1163.076048 2.781089 
1165.004864 2.778576 
1166.933680 2.782498 
1168.862496 2.785224 
1170.791312 2.784308 
1172.720128 2.784560 
1174.648944 2.789926 
1176.577760 2.789307 
1178.506576 2.795920 
1180.435392 2.794864 
1182.364208 2.773206 
1184.293024 2.805552 
1186.221840 2.792511 
1188.150656 2.791410 
1190.079472 2.775348 
1192.008288 2.778329 
1193.937104 2.766293 
1195.865920 2.776280 
1197.794736 2.778948 
1199.723552 2.767735 
1201.652368 2.757786 
1203.581184 2.759550 
1205.510000 2.756008 
1207.438816 2.785118 
1209.367632 2.782457 
1211.296448 2.767468 
1213.225264 2.777470 
1215.154080 2.785778 
1217.082896 2.784705 
1219.011712 2.822733 
1220.940528 2.801233 
1222.869344 2.817130 
1224.798160 2.794808 
1226.726976 2.837009 
1228.655792 2.827922 
1230.584608 2.846327 
1232.513424 2.825554 
1234.442240 2.832763 
1236.371056 2.850189 
1238.299872 2.842077 
1240.228688 2.852632 
1242.157504 2.874079 
1244.086320 2.864810 
1246.015136 2.881607 
1247.943952 2.881327 
1249.872768 2.914971 
1251.801584 2.890067 
1253.730400 2.901699 
1255.659216 2.894490 
1257.588032 2.906651 
1259.516848 2.905868 
1261.445664 2.937248 
1263.374480 2.953925 
1265.303296 2.961582 
1267.232112 2.999292 
1269.160928 3.127157 
1271.089744 3.386326 
1273.018560 3.475235 
1274.947376 3.012879 
1276.876192 2.702069 
1278.805008 2.494358 
1280.733824 2.331326 
1282.662640 2.192588 
1284.591456 2.055202 
1286.520272 1.958616 
1288.449088 1.859004 
1290.377904 1.773031 
1292.306720 1.697228 
1294.235536 1.623686 
1296.164352 1.563846 
1298.093168 1.503085 
1300.021984 1.448417 
1301.950800 1.399444 
1303.879616 1.352431 
1305.808432 1.309860 
1307.737248 1.269705 
1309.666064 1.231914 
1311.594880 1.196302 
1313.523696 1.164076 
1315.452512 1.133717 
1317.381328 1.105092 
1319.310144 1.078998 
1321.238960 1.053705 
1323.167776 1.030396 
1325.096592 1.008247 
1327.025408 0.987817 
1328.954224 0.968787 
1330.883040 0.950795 
1332.811856 0.933201 
1334.740672 0.917617 
1336.669488 0.901830 
1338.598304 0.887881 
1340.527120 0.874275 
1342.455936 0.861617 
1344.384752 0.849609 
1346.313568 0.838267 
1348.242384 0.827112 
1350.171200 0.817291 
1352.100016 0.807155 
1354.028832 0.798237 
1355.957648 0.789317 
1357.886464 0.781118 
1359.815280 0.773039 
1361.744096 0.765520 
1363.672912 0.758929 
1365.601728 0.752200 
1367.530544 0.745322 
1369.459360 0.739210 
1371.388176 0.732725 
1373.316992 0.726391 
1375.245808 0.721701 
1377.174624 0.716192 
1379.103440 0.711253 
1381.032256 0.706048 
1382.961072 0.700846 
1384.889888 0.695503 
1386.818704 0.690256 
1388.747520 0.685384 
1390.676336 0.680553 
1392.605152 0.675483 
1394.533968 0.672194 
1396.462784 0.666615 
1398.391600 0.661111 
1400.320416 0.657324 
1402.249232 0.652819 
1404.178048 0.648452 
1406.106864 0.645221 
1408.035680 0.641184 
1409.964496 0.637601 
1411.893312 0.634472 
1413.822128 0.630854 
1415.750944 0.627390 
1417.679760 0.623432 
1419.608576 0.621712 
1421.537392 0.619271 
1423.466208 0.616010 
1425.395024 0.614156 
1427.323840 0.610829 
1429.252656 0.609036 
1431.181472 0.606611 
1433.110288 0.604702 
1435.039104 0.600523 
1436.967920 0.600868 
1438.896736 0.599121 
1440.825552 0.597283 
1442.754368 0.595832 
1444.683184 0.594459 
1446.612000 0.592185 
1448.540816 0.592067 
1450.469632 0.589633 
1452.398448 0.589253 
1454.327264 0.585433 
1456.256080 0.584338 
1458.184896 0.585922 
1460.113712 0.584163 
1462.042528 0.582435 
1463.971344 0.580697 
1465.900160 0.580322 
1467.828976 0.578615 
1469.757792 0.575897 
1471.686608 0.573162 
1473.615424 0.572527 
1475.544240 0.570445 
1477.473056 0.569518 
1479.401872 0.567799 
1481.330688 0.566882 
1483.259504 0.565992 
1485.188320 0.564519 
1487.117136 0.563778 
1489.045952 0.562752 
1490.974768 0.563157 
1492.903584 0.562115 
1494.832400 0.559975 
1496.761216 0.560524 
1498.690032 0.559996 
1500.618848 0.559620 
1502.547664 0.558482 
1504.476480 0.555227 
1506.405296 0.556375 
1508.334112 0.557808 
1510.262928 0.556150 
1512.191744 0.556183 
1514.120560 0.554468 
1516.049376 0.553273 
1517.978192 0.552517 
1519.907008 0.549553 
1521.835824 0.551242 
1523.764640 0.549601 
1525.693456 0.549129 
1527.622272 0.548638 
1529.551088 0.547806 
1531.479904 0.545803 
1533.408720 0.545690 
1535.337536 0.545176 
1537.266352 0.541214 
1539.195168 0.541140 
1541.123984 0.542029 
1543.052800 0.541359 
1544.981616 0.541496 
1546.910432 0.541024 
1548.839248 0.540330 
1550.768064 0.540481 
1552.696880 0.539004 
1554.625696 0.539848 
1556.554512 0.536576 
1558.483328 0.536907 
1560.412144 0.540591 
1562.340960 0.539668 
1564.269776 0.540103 
1566.198592 0.540362 
1568.127408 0.540209 
1570.056224 0.542055 
1571.985040 0.543464 
1573.913856 0.542107 
1575.842672 0.544859 
1577.771488 0.548177 
1579.700304 0.548713 
1581.629120 0.551414 
1583.557936 0.552691 
1585.486752 0.555184 
1587.415568 0.557069 
1589.344384 0.559678 
1591.273200 0.562012 
1593.202016 0.564737 
1595.130832 0.567241 
1597.059648 0.570225 
1598.988464 0.572569 
1600.917280 0.575346 
1602.846096 0.577700 
1604.774912 0.580349 
1606.703728 0.582665 
1608.632544 0.585394 
1610.561360 0.587638 
1612.490176 0.590478 
1614.418992 0.590504 
1616.347808 0.594242 
1618.276624 0.597846 
1620.205440 0.599023 
1622.134256 0.600959 
1624.063072 0.603851 
1625.991888 0.605509 
1627.920704 0.607581 
1629.849520 0.609613 
1631.778336 0.610765 
1633.707152 0.610233 
1635.635968 0.613505 
1637.564784 0.615470 
1639.493600 0.615834 
1641.422416 0.617341 
1643.351232 0.616080 
1645.280048 0.616521 
1647.208864 0.617859 
1649.137680 0.617003 
1651.066496 0.612186 
1652.995312 0.615076 
1654.924128 0.616208 
1656.852944 0.613691 
1658.781760 0.612508 
1660.710576 0.609894 
1662.639392 0.608645 
1664.568208 0.606751 
1666.497024 0.603488 
1668.425840 0.600573 
1670.354656 0.599085 
1672.283472 0.595588 
1674.212288 0.591727 
1676.141104 0.590822 
1678.069920 0.586055 
1679.998736 0.583595 
1681.927552 0.577047 
1683.856368 0.574651 
1685.785184 0.573899 
1687.714000 0.569388 
1689.642816 0.566412 
1691.571632 0.563521 
1693.500448 0.557385 
1695.429264 0.556150 
1697.358080 0.553288 
1699.286896 0.548454 
1701.215712 0.550364 
1703.144528 0.545458 
1705.073344 0.544490 
1707.002160 0.541981 
1708.930976 0.540279 
1710.859792 0.537695 
1712.788608 0.535647 
1714.717424 0.532387 
1716.646240 0.531077 
1718.575056 0.531452 
1720.503872 0.529598 
1722.432688 0.527920 
1724.361504 0.527019 
1726.290320 0.525339 
1728.219136 0.524161 
1730.147952 0.522627 
1732.076768 0.519580 
1734.005584 0.520913 
1735.934400 0.521217 
1737.863216 0.518697 
1739.792032 0.519550 
1741.720848 0.518359 
1743.649664 0.518417 
1745.578480 0.517335 
1747.507296 0.517043 
1749.436112 0.515889 
1751.364928 0.517133 
1753.293744 0.516823 
1755.222560 0.516188 
1757.151376 0.516833 
1759.080192 0.516369 
1761.009008 0.516497 
1762.937824 0.517651 
1764.866640 0.517288 
1766.795456 0.517609 
1768.724272 0.518352 
1770.653088 0.517699 
1772.581904 0.519918 
1774.510720 0.520866 
1776.439536 0.521730 
1778.368352 0.522418 
1780.297168 0.523730 
1782.225984 0.524696 
1784.154800 0.525928 
1786.083616 0.527672 
1788.012432 0.528677 
1789.941248 0.529604 
1791.870064 0.531533 
1793.798880 0.534164 
1795.727696 0.535516 
1797.656512 0.537747 
1799.585328 0.539488 
1801.514144 0.542402 
1803.442960 0.544536 
1805.371776 0.547295 
1807.300592 0.549796 
1809.229408 0.552683 
1811.158224 0.555787 
1813.087040 0.559207 
1815.015856 0.562177 
1816.944672 0.565998 
1818.873488 0.569293 
1820.802304 0.573429 
1822.731120 0.576614 
1824.659936 0.581215 
1826.588752 0.585070 
1828.517568 0.589111 
1830.446384 0.594040 
1832.375200 0.598453 
1834.304016 0.602655 
1836.232832 0.607344 
1838.161648 0.611522 
1840.090464 0.616043 
1842.019280 0.619152 
1843.948096 0.624347 
1845.876912 0.628567 
1847.805728 0.632226 
1849.734544 0.635939 
1851.663360 0.639107 
1853.592176 0.642107 
1855.520992 0.644755 
1857.449808 0.646860 
1859.378624 0.648792 
1861.307440 0.650105 
1863.236256 0.650899 
1865.165072 0.651130 
1867.093888 0.650563 
1869.022704 0.650358 
1870.951520 0.649483 
1872.880336 0.647399 
1874.809152 0.645419 
1876.737968 0.642441 
1878.666784 0.639374 
1880.595600 0.635750 
1882.524416 0.631722 
1884.453232 0.627382 
1886.382048 0.622693 
1888.310864 0.617540 
1890.239680 0.613037 
1892.168496 0.607522 
1894.097312 0.602363 
1896.026128 0.597117 
1897.954944 0.591883 
1899.883760 0.586515 
1901.812576 0.581654 
1903.741392 0.576499 
1905.670208 0.571942 
1907.599024 0.567082 
1909.527840 0.562999 
1911.456656 0.558813 
1913.385472 0.555056 
1915.314288 0.551103 
1917.243104 0.547979 
1919.171920 0.545280 
1921.100736 0.542355 
1923.029552 0.540047 
1924.958368 0.537900 
1926.887184 0.535989 
1928.816000 0.534330 
1930.744816 0.532854 
1932.673632 0.531649 
1934.602448 0.530561 
1936.531264 0.529790 
1938.460080 0.528967 
1940.388896 0.528349 
1942.317712 0.528004 
1944.246528 0.527854 
1946.175344 0.527573 
1948.104160 0.527510 
1950.032976 0.527353 
1951.961792 0.527509 
1953.890608 0.527360 
1955.819424 0.527362 
1957.748240 0.527514 
1959.677056 0.527938 
1961.605872 0.527571 
1963.534688 0.528137 
1965.463504 0.527187 
1967.392320 0.527534 
1969.321136 0.527157 
1971.249952 0.530174 
1973.178768 0.530296 
1975.107584 0.525241 
1977.036400 0.524973 
1978.965216 0.523865 
1980.894032 0.523091 
1982.822848 0.521984 
1984.751664 0.520835 
1986.680480 0.519425 
1988.609296 0.518053 
1990.538112 0.516359 
1992.466928 0.514909 
1994.395744 0.512940 
1996.324560 0.511067 
1998.253376 0.508962 
2000.182192 0.506769 
2002.111008 0.504504 
2004.039824 0.502018 
2005.968640 0.499551 
2007.897456 0.496895 
2009.826272 0.494102 
2011.755088 0.491219 
2013.683904 0.488316 
2015.612720 0.485194 
2017.541536 0.482233 
2019.470352 0.479027 
2021.399168 0.475762 
2023.327984 0.472477 
2025.256800 0.468992 
2027.185616 0.465563 
2029.114432 0.462273 
2031.043248 0.458734 
2032.972064 0.455301 
2034.900880 0.451697 
2036.829696 0.448057 
2038.758512 0.444600 
2040.687328 0.441330 
2042.616144 0.438959 
2044.544960 0.434736 
2046.473776 0.430799 
2048.402592 0.427559 
2050.331408 0.424135 
2052.260224 0.421085 
2054.189040 0.418044 
2056.117856 0.415192 
2058.046672 0.412255 
2059.975488 0.409561 
2061.904304 0.406759 
2063.833120 0.404260 
2065.761936 0.401822 
2067.690752 0.399554 
2069.619568 0.397335 
2071.548384 0.395239 
2073.477200 0.393164 
2075.406016 0.391355 
2077.334832 0.389538 
2079.263648 0.387950 
2081.192464 0.386336 
2083.121280 0.384908 
2085.050096 0.383443 
2086.978912 0.382177 
2088.907728 0.380941 
2090.836544 0.379975 
2092.765360 0.378864 
2094.694176 0.377982 
2096.622992 0.377072 
2098.551808 0.376231 
2100.480624 0.375446 
2102.409440 0.374757 
2104.338256 0.374176 
2106.267072 0.373761 
2108.195888 0.373203 
2110.124704 0.372786 
2112.053520 0.372187 
2113.982336 0.371778 
2115.911152 0.371291 
2117.839968 0.371029 
2119.768784 0.370732 
2121.697600 0.370560 
2123.626416 0.370277 
2125.555232 0.370037 
2127.484048 0.369624 
2129.412864 0.369316 
2131.341680 0.368936 
2133.270496 0.368803 
2135.199312 0.368753 
2137.128128 0.368720 
2139.056944 0.368696 
2140.985760 0.368544 
2142.914576 0.368132 
2144.843392 0.367893 
2146.772208 0.367646 
2148.701024 0.367646 
2150.629840 0.367722 
2152.558656 0.367867 
2154.487472 0.367844 
2156.416288 0.367828 
2158.345104 0.367496 
2160.273920 0.367292 
2162.202736 0.367088 
2164.131552 0.367106 
2166.060368 0.367277 
2167.989184 0.367519 
2169.918000 0.367651 
2171.846816 0.367676 
2173.775632 0.367457 
2175.704448 0.367264 
2177.633264 0.367025 
2179.562080 0.367145 
2181.490896 0.367300 
2183.419712 0.367678 
2185.348528 0.367857 
2187.277344 0.368014 
2189.206160 0.367810 
2191.134976 0.367663 
2193.063792 0.367469 
2194.992608 0.367614 
2196.921424 0.367795 
2198.850240 0.368203 
2200.779056 0.368545 
2202.707872 0.368761 
2204.636688 0.368776 
2206.565504 0.368665 
2208.494320 0.368533 
2210.423136 0.368575 
2212.351952 0.368759 
2214.280768 0.369092 
2216.209584 0.369528 
2218.138400 0.369775 
2220.067216 0.369881 
2221.996032 0.369945 
2223.924848 0.369716 
2225.853664 0.369726 
2227.782480 0.369719 
2229.711296 0.370018 
2231.640112 0.370265 
2233.568928 0.370635 
2235.497744 0.370794 
2237.426560 0.370958 
2239.355376 0.370833 
2241.284192 0.370771 
2243.213008 0.370672 
2245.141824 0.370713 
2247.070640 0.370895 
2248.999456 0.371272 
2250.928272 0.371559 
2252.857088 0.371816 
2254.785904 0.371724 
2256.714720 0.371651 
2258.643536 0.371340 
2260.572352 0.371233 
2262.501168 0.371175 
2264.429984 0.371467 
2266.358800 0.371685 
2268.287616 0.372047 
2270.216432 0.372061 
2272.145248 0.372025 
2274.074064 0.371685 
2276.002880 0.371443 
2277.931696 0.371121 
2279.860512 0.371221 
2281.789328 0.371346 
2283.718144 0.371803 
2285.646960 0.371963 
2287.575776 0.372055 
2289.504592 0.371812 
2291.433408 0.371458 
2293.362224 0.371061 
2295.291040 0.370918 
2297.219856 0.370927 
2299.148672 0.371357 
2301.077488 0.371654 
2303.006304 0.371994 
2304.935120 0.371852 
2306.863936 0.371604 
2308.792752 0.371151 
2310.721568 0.370784 
2312.650384 0.370659 
2314.579200 0.370893 
2316.508016 0.371249 
2318.436832 0.371758 
2320.365648 0.371928 
2322.294464 0.372004 
2324.223280 0.371693 
2326.152096 0.371319 
2328.080912 0.371003 
2330.009728 0.371089 
2331.938544 0.371276 
2333.867360 0.371877 
2335.796176 0.372303 
2337.724992 0.372717 
2339.653808 0.372590 
2341.582624 0.372332 
2343.511440 0.371847 
2345.440256 0.371499 
2347.369072 0.371008 
2349.297888 0.370848 
2351.226704 0.371321 
2353.155520 0.372127 
2355.084336 0.372516 
2357.013152 0.372686 
2358.941968 0.372560 
2360.870784 0.372292 
2362.799600 0.372061 
2364.728416 0.372207 
2366.657232 0.372404 
2368.586048 0.372970 
2370.514864 0.373256 
2372.443680 0.373424 
2374.372496 0.373195 
2376.301312 0.372758 
2378.230128 0.372197 
2380.158944 0.371920 
2382.087760 0.371789 
2384.016576 0.372145 
2385.945392 0.372563 
2387.874208 0.373130 
2389.803024 0.373436 
2391.731840 0.373422 
2393.660656 0.373074 
2395.589472 0.372798 
2397.518288 0.372426 
2399.447104 0.372444 
2401.375920 0.372711 
2403.304736 0.373307 
2405.233552 0.373734 
2407.162368 0.374146 
2409.091184 0.374091 
2411.020000 0.373870 
2412.948816 0.373444 
2414.877632 0.373157 
2416.806448 0.373078 
2418.735264 0.373376 
2420.664080 0.373820 
2422.592896 0.374423 
2424.521712 0.374723 
2426.450528 0.374854 
2428.379344 0.374595 
2430.308160 0.374274 
2432.236976 0.373904 
2434.165792 0.373857 
2436.094608 0.373985 
2438.023424 0.374593 
2439.952240 0.375117 
2441.881056 0.375632 
2443.809872 0.375792 
2445.738688 0.375629 
2447.667504 0.375251 
2449.596320 0.374914 
2451.525136 0.374724 
2453.453952 0.374980 
2455.382768 0.375358 
2457.311584 0.376044 
2459.240400 0.376494 
2461.169216 0.376712 
2463.098032 0.376642 
2465.026848 0.376342 
2466.955664 0.375945 
2468.884480 0.375816 
2470.813296 0.375817 
2472.742112 0.376305 
2474.670928 0.376795 
2476.599744 0.377350 
2478.528560 0.377639 
2480.457376 0.377638 
2482.386192 0.377351 
2484.315008 0.377072 
2486.243824 0.376733 
2488.172640 0.376830 
2490.101456 0.377122 
2492.030272 0.377662 
2493.959088 0.378213 
2495.887904 0.378574 
2497.816720 0.378661 
2499.745536 0.378509 
2501.674352 0.378069 
2503.603168 0.377862 
2505.531984 0.377719 
2507.460800 0.377995 
2509.389616 0.378425 
2511.318432 0.379001 
2513.247248 0.379419 
2515.176064 0.379663 
2517.104880 0.379501 
2519.033696 0.379260 
2520.962512 0.378920 
2522.891328 0.378785 
2524.820144 0.378835 
2526.748960 0.379258 
2528.677776 0.379786 
2530.606592 0.380342 
2532.535408 0.380596 
2534.464224 0.380690 
2536.393040 0.380427 
2538.321856 0.380177 
2540.250672 0.379923 
2542.179488 0.379987 
2544.108304 0.380240 
2546.037120 0.380816 
2547.965936 0.381287 
2549.894752 0.381719 
2551.823568 0.381826 
2553.752384 0.381756 
2555.681200 0.381463 
2557.610016 0.381236 
2559.538832 0.381109 
2561.467648 0.381350 
2563.396464 0.381705 
2565.325280 0.382285 
2567.254096 0.382718 
2569.182912 0.382972 
2571.111728 0.382940 
2573.040544 0.382794 
2574.969360 0.382510 
2576.898176 0.382387 
2578.826992 0.382433 
2580.755808 0.382776 
2582.684624 0.383205 
2584.613440 0.383724 
2586.542256 0.384064 
2588.471072 0.384236 
2590.399888 0.384117 
2592.328704 0.383948 
2594.257520 0.383741 
2596.186336 0.383689 
2598.115152 0.383831 
2600.043968 0.384297 
2601.972784 0.384698 
2603.901600 0.385174 
2605.830416 0.385332 
2607.759232 0.385421 
2609.688048 0.385234 
2611.616864 0.385073 
2613.545680 0.384948 
2615.474496 0.385027 
2617.403312 0.385260 
2619.332128 0.385738 
2621.260944 0.386143 
2623.189760 0.386495 
2625.118576 0.386614 
2627.047392 0.386570 
2628.976208 0.386424 
2630.905024 0.386319 
2632.833840 0.386199 
2634.762656 0.386534 
2636.691472 0.386805 
2638.620288 0.387300 
2640.549104 0.387683 
2642.477920 0.387944 
2644.406736 0.388020 
2646.335552 0.387948 
2648.264368 0.387800 
2650.193184 0.387795 
2652.122000 0.387801 
2654.050816 0.388109 
2655.979632 0.388461 
2657.908448 0.388869 
2659.837264 0.389197 
2661.766080 0.389368 
2663.694896 0.389322 
2665.623712 0.389324 
2667.552528 0.389136 
2669.481344 0.389194 
2671.410160 0.389306 
2673.338976 0.389621 
2675.267792 0.389954 
2677.196608 0.390371 
2679.125424 0.390549 
2681.054240 0.390714 
2682.983056 0.390661 
2684.911872 0.390612 
2686.840688 0.390561 
2688.769504 0.390634 
2690.698320 0.390789 
2692.627136 0.391146 
2694.555952 0.391425 
2696.484768 0.391812 
2698.413584 0.391912 
2700.342400 0.392040 
2702.271216 0.391957 
2704.200032 0.391977 
2706.128848 0.391892 
2708.057664 0.392099 
2709.986480 0.392225 
2711.915296 0.392625 
2713.844112 0.392875 
2715.772928 0.393154 
2717.701744 0.393297 
2719.630560 0.393370 
2721.559376 0.393307 
2723.488192 0.393366 
2725.417008 0.393341 
2727.345824 0.393589 
2729.274640 0.393797 
2731.203456 0.394111 
2733.132272 0.394409 
2735.061088 0.394652 
2736.989904 0.394696 
2738.918720 0.394794 
2740.847536 0.394731 
2742.776352 0.394859 
2744.705168 0.394952 
2746.633984 0.395123 
2748.562800 0.395363 
2750.491616 0.395702 
2752.420432 0.395851 
2754.349248 0.396108 
2756.278064 0.396124 
2758.206880 0.396284 
2760.135696 0.396287 
2762.064512 0.396388 
2763.993328 0.396502 
2765.922144 0.396728 
2767.850960 0.396871 
2769.779776 0.397236 
2771.708592 0.397374 
2773.637408 0.397596 
2775.566224 0.397653 
2777.495040 0.397775 
2779.423856 0.397888 
2781.352672 0.398157 
2783.281488 0.398278 
2785.210304 0.398717 
2787.139120 0.398915 
2789.067936 0.399193 
2790.996752 0.399442 
2792.925568 0.399630 
2794.854384 0.399748 
2796.783200 0.400016 
2798.712016 0.400124 
2800.640832 0.400505 
2802.569648 0.400746 
2804.498464 0.401102 
2806.427280 0.401432 
2808.356096 0.401695 
2810.284912 0.401876 
2812.213728 0.402162 
2814.142544 0.402331 
2816.071360 0.402713 
2818.000176 0.403037 
2819.928992 0.403487 
2821.857808 0.403927 
2823.786624 0.404380 
2825.715440 0.404776 
2827.644256 0.405288 
2829.573072 0.405595 
2831.501888 0.406192 
2833.430704 0.406818 
2835.359520 0.407594 
2837.288336 0.408500 
2839.217152 0.409530 
2841.145968 0.410569 
2843.074784 0.411933 
2845.003600 0.413160 
2846.932416 0.414763 
2848.861232 0.416452 
2850.790048 0.417982 
2852.718864 0.419243 
2854.647680 0.420316 
2856.576496 0.420753 
2858.505312 0.420902 
2860.434128 0.420445 
2862.362944 0.419973 
2864.291760 0.419356 
2866.220576 0.418834 
2868.149392 0.418569 
2870.078208 0.418532 
2872.007024 0.418569 
2873.935840 0.418780 
2875.864656 0.418784 
2877.793472 0.418769 
2879.722288 0.418652 
2881.651104 0.418518 
2883.579920 0.418377 
2885.508736 0.418402 
2887.437552 0.418509 
2889.366368 0.419005 
2891.295184 0.419491 
2893.224000 0.420256 
2895.152816 0.421104 
2897.081632 0.421953 
2899.010448 0.422788 
2900.939264 0.423563 
2902.868080 0.424098 
2904.796896 0.424888 
2906.725712 0.425683 
2908.654528 0.426621 
2910.583344 0.427859 
2912.512160 0.429347 
2914.440976 0.431060 
2916.369792 0.433192 
2918.298608 0.435023 
2920.227424 0.436828 
2922.156240 0.438210 
2924.085056 0.439283 
2926.013872 0.439920 
2927.942688 0.440274 
2929.871504 0.440125 
2931.800320 0.439988 
2933.729136 0.439417 
2935.657952 0.438685 
2937.586768 0.437697 
2939.515584 0.436465 
2941.444400 0.435040 
2943.373216 0.433885 
2945.302032 0.432821 
2947.230848 0.432378 
2949.159664 0.432240 
2951.088480 0.432478 
2953.017296 0.432883 
2954.946112 0.433227 
2956.874928 0.433325 
2958.803744 0.433376 
2960.732560 0.432805 
2962.661376 0.432187 
2964.590192 0.431377 
2966.519008 0.430653 
2968.447824 0.430073 
2970.376640 0.429555 
2972.305456 0.428952 
2974.234272 0.428516 
2976.163088 0.427808 
2978.091904 0.427210 
2980.020720 0.426428 
2981.949536 0.425682 
2983.878352 0.425159 
2985.807168 0.424846 
2987.735984 0.424833 
2989.664800 0.425091 
2991.593616 0.425169 
2993.522432 0.425355 
2995.451248 0.425329 
2997.380064 0.425191 
2999.308880 0.424990 
3001.237696 0.424776 
3003.166512 0.424656 
3005.095328 0.424877 
3007.024144 0.425195 
3008.952960 0.425859 
3010.881776 0.426396 
3012.810592 0.426967 
3014.739408 0.427248 
3016.668224 0.427600 
3018.597040 0.427532 
3020.525856 0.427443 
3022.454672 0.427533 
3024.383488 0.427860 
3026.312304 0.428372 
3028.241120 0.429225 
3030.169936 0.429892 
3032.098752 0.430674 
3034.027568 0.431003 
3035.956384 0.431294 
3037.885200 0.431304 
3039.814016 0.431330 
3041.742832 0.431448 
3043.671648 0.431746 
3045.600464 0.432279 
3047.529280 0.433202 
3049.458096 0.434070 
3051.386912 0.434819 
3053.315728 0.435340 
3055.244544 0.435580 
3057.173360 0.435728 
3059.102176 0.435780 
3061.030992 0.435835 
3062.959808 0.436311 
3064.888624 0.436818 
3066.817440 0.437915 
3068.746256 0.438809 
3070.675072 0.439672 
3072.603888 0.440299 
3074.532704 0.440636 
3076.461520 0.440781 
3078.390336 0.440844 
3080.319152 0.440902 
3082.247968 0.441401 
3084.176784 0.442044 
3086.105600 0.443192 
3088.034416 0.444162 
3089.963232 0.445135 
3091.892048 0.445803 
3093.820864 0.446341 
3095.749680 0.446538 
3097.678496 0.446616 
3099.607312 0.446805 
3101.536128 0.447300 
3103.464944 0.448145 
3105.393760 0.449293 
3107.322576 0.450369 
3109.251392 0.451528 
3111.180208 0.452406 
3113.109024 0.453110 
3115.037840 0.453375 
3116.966656 0.453668 
3118.895472 0.453830 
3120.824288 0.454465 
3122.753104 0.455340 
3124.681920 0.456580 
3126.610736 0.457849 
3128.539552 0.459206 
3130.468368 0.460196 
3132.397184 0.461040 
3134.326000 0.461401 
3136.254816 0.461886 
3138.183632 0.462173 
3140.112448 0.462835 
3142.041264 0.463800 
3143.970080 0.465142 
3145.898896 0.466522 
3147.827712 0.468074 
3149.756528 0.469319 
3151.685344 0.470267 
3153.614160 0.470806 
3155.542976 0.471313 
3157.471792 0.471817 
3159.400608 0.472562 
3161.329424 0.473615 
3163.258240 0.475099 
3165.187056 0.476589 
3167.115872 0.478364 
3169.044688 0.479794 
3170.973504 0.480942 
3172.902320 0.481728 
3174.831136 0.482433 
3176.759952 0.482928 
3178.688768 0.483919 
3180.617584 0.484951 
3182.546400 0.486587 
3184.475216 0.488378 
3186.404032 0.490300 
3188.332848 0.491947 
3190.261664 0.493379 
3192.190480 0.494371 
3194.119296 0.495250 
3196.048112 0.495996 
3197.976928 0.496999 
3199.905744 0.498214 
3201.834560 0.499949 
3203.763376 0.501868 
3205.692192 0.504071 
3207.621008 0.505905 
3209.549824 0.507691 
3211.478640 0.509042 
3213.407456 0.509973 
3215.336272 0.510923 
3217.265088 0.512071 
3219.193904 0.513414 
3221.122720 0.515312 
3223.051536 0.517414 
3224.980352 0.519776 
3226.909168 0.521969 
3228.837984 0.523964 
3230.766800 0.525635 
3232.695616 0.526957 
3234.624432 0.528074 
3236.553248 0.529372 
3238.482064 0.530922 
3240.410880 0.532917 
3242.339696 0.535262 
3244.268512 0.537881 
3246.197328 0.540332 
3248.126144 0.542679 
3250.054960 0.544541 
3251.983776 0.546238 
3253.912592 0.547684 
3255.841408 0.549174 
3257.770224 0.550866 
3259.699040 0.553045 
3261.627856 0.555567 
3263.556672 0.558484 
3265.485488 0.561329 
3267.414304 0.564025 
3269.343120 0.566315 
3271.271936 0.568263 
3273.200752 0.569987 
3275.129568 0.571866 
3277.058384 0.573718 
3278.987200 0.576131 
3280.916016 0.578929 
3282.844832 0.582055 
3284.773648 0.585220 
3286.702464 0.588363 
3288.631280 0.591071 
3290.560096 0.593533 
3292.488912 0.595560 
3294.417728 0.597685 
3296.346544 0.599868 
3298.275360 0.602509 
3300.204176 0.605436 
3302.132992 0.608941 
3304.061808 0.612476 
3305.990624 0.615865 
3307.919440 0.618988 
3309.848256 0.621817 
3311.777072 0.624252 
3313.705888 0.626667 
3315.634704 0.628988 
3317.563520 0.631741 
3319.492336 0.634859 
3321.421152 0.638475 
3323.349968 0.642276 
3325.278784 0.646024 
3327.207600 0.649491 
3329.136416 0.652793 
3331.065232 0.655510 
3332.994048 0.658365 
3334.922864 0.661071 
3336.851680 0.664048 
3338.780496 0.667496 
3340.709312 0.671357 
3342.638128 0.675467 
3344.566944 0.679840 
3346.495760 0.683859 
3348.424576 0.687732 
3350.353392 0.691156 
3352.282208 0.694236 
3354.211024 0.697360 
3356.139840 0.700805 
3358.068656 0.704473 
3359.997472 0.708717 
3361.926288 0.713110 
3363.855104 0.717931 
3365.783920 0.722439 
3367.712736 0.726786 
3369.641552 0.730612 
3371.570368 0.734237 
3373.499184 0.737533 
3375.428000 0.741161 
3377.356816 0.745031 
3379.285632 0.749395 
3381.214448 0.753963 
3383.143264 0.759037 
3385.072080 0.763779 
3387.000896 0.768526 
3388.929712 0.772724 
3390.858528 0.776483 
3392.787344 0.780372 
3394.716160 0.784235 
3396.644976 0.788234 
3398.573792 0.792629 
3400.502608 0.797372 
3402.431424 0.802717 
3404.360240 0.807940 
3406.289056 0.813105 
3408.217872 0.817730 
3410.146688 0.822080 
3412.075504 0.826078 
3414.004320 0.830301 
3415.933136 0.834344 
3417.861952 0.838970 
3419.790768 0.843969 
3421.719584 0.849427 
3423.648400 0.854683 
3425.577216 0.860156 
3427.506032 0.865057 
3429.434848 0.869819 
3431.363664 0.874169 
3433.292480 0.878214 
3435.221296 0.882482 
3437.150112 0.887138 
3439.078928 0.892078 
3441.007744 0.897456 
3442.936560 0.902896 
3444.865376 0.908470 
3446.794192 0.913717 
3448.723008 0.918698 
3450.651824 0.922887 
3452.580640 0.927428 
3454.509456 0.931593 
3456.438272 0.936066 
3458.367088 0.940901 
3460.295904 0.946147 
3462.224720 0.951554 
3464.153536 0.957071 
3466.082352 0.962263 
3468.011168 0.967164 
3469.939984 0.971594 
3471.868800 0.975884 
3473.797616 0.980003 
3475.726432 0.984211 
3477.655248 0.988436 
3479.584064 0.993287 
3481.512880 0.998223 
3483.441696 1.003424 
3485.370512 1.008242 
3487.299328 1.012957 
3489.228144 1.017232 
3491.156960 1.021092 
3493.085776 1.024537 
3495.014592 1.028189 
3496.943408 1.031950 
3498.872224 1.035941 
3500.801040 1.040160 
3502.729856 1.044734 
3504.658672 1.049052 
3506.587488 1.052897 
3508.516304 1.056491 
3510.445120 1.059628 
3512.373936 1.062284 
3514.302752 1.064869 
3516.231568 1.067539 
3518.160384 1.070255 
3520.089200 1.073174 
3522.018016 1.076491 
3523.946832 1.079428 
3525.875648 1.082438 
3527.804464 1.084588 
3529.733280 1.086586 
3531.662096 1.087718 
3533.590912 1.088843 
3535.519728 1.089810 
3537.448544 1.091047 
3539.377360 1.091998 
3541.306176 1.093378 
3543.234992 1.094518 
3545.163808 1.095990 
3547.092624 1.096841 
3549.021440 1.096812 
3550.950256 1.096783 
3552.879072 1.096411 
3554.807888 1.095726 
3556.736704 1.094972 
3558.665520 1.094666 
3560.594336 1.094538 
3562.523152 1.093922 
3564.451968 1.093925 
3566.380784 1.094127 
3568.309600 1.093804 
3570.238416 1.092240 
3572.167232 1.090860 
3574.096048 1.089504 
3576.024864 1.088518 
3577.953680 1.087236 
3579.882496 1.086600 
3581.811312 1.085867 
3583.740128 1.085391 
3585.668944 1.085155 
3587.597760 1.085057 
3589.526576 1.084314 
3591.455392 1.082824 
3593.384208 1.081970 
3595.313024 1.081017 
3597.241840 1.080506 
3599.170656 1.080228 
3601.099472 1.080470 
3603.028288 1.080396 
3604.957104 1.080503 
3606.885920 1.080691 
3608.814736 1.081314 
3610.743552 1.081222 
3612.672368 1.081170 
3614.601184 1.081089 
3616.530000 1.080982 
3618.458816 1.082326 
3620.387632 1.083437 
3622.316448 1.083863 
3624.245264 1.084822 
3626.174080 1.085343 
3628.102896 1.087929 
3630.031712 1.090293 
3631.960528 1.089466 
3633.889344 1.090588 
3635.818160 1.091122 
3637.746976 1.092212 
3639.675792 1.092949 
3641.604608 1.094276 
3643.533424 1.094961 
3645.462240 1.095634 
3647.391056 1.097071 
3649.319872 1.098995 
3651.248688 1.099347 
3653.177504 1.098450 
3655.106320 1.098644 
3657.035136 1.099073 
3658.963952 1.098574 
3660.892768 1.098296 
3662.821584 1.097609 
3664.750400 1.096634 
3666.679216 1.095494 
3668.608032 1.094229 
3670.536848 1.093875 
3672.465664 1.090964 
3674.394480 1.089394 
3676.323296 1.089455 
3678.252112 1.086194 
3680.180928 1.085036 
3682.109744 1.082739 
3684.038560 1.081345 
3685.967376 1.078912 
3687.896192 1.079875 
3689.825008 1.079450 
3691.753824 1.078835 
3693.682640 1.078571 
3695.611456 1.078950 
3697.540272 1.080107 
3699.469088 1.082346 
3701.397904 1.085953 
3703.326720 1.089909 
3705.255536 1.093847 
3707.184352 1.098398 
3709.113168 1.102977 
3711.041984 1.107424 
3712.970800 1.110985 
3714.899616 1.111420 
3716.828432 1.111183 
3718.757248 1.110151 
3720.686064 1.109050 
3722.614880 1.109564 
3724.543696 1.113338 
3726.472512 1.122406 
3728.401328 1.138147 
3730.330144 1.161337 
3732.258960 1.195831 
3734.187776 1.237699 
3736.116592 1.292772 
3738.045408 1.353857 
3739.974224 1.426581 
3741.903040 1.486108 
3743.831856 1.485356 
3745.760672 1.341709 
3747.689488 1.103832 
3749.618304 0.851009 
3751.547120 0.694246 
3753.475936 0.626654 
3755.404752 0.591416 
3757.333568 0.569987 
3759.262384 0.554561 
3761.191200 0.543185 
3763.120016 0.533514 
3765.048832 0.526353 
3766.977648 0.519751 
3768.906464 0.514596 
3770.835280 0.510083 
3772.764096 0.505445 
3774.692912 0.501504 
3776.621728 0.497913 
3778.550544 0.495133 
3780.479360 0.492782 
3782.408176 0.490138 
3784.336992 0.488523 
3786.265808 0.486558 
3788.194624 0.484943 
3790.123440 0.483177 
3792.052256 0.481636 
3793.981072 0.479739 
3795.909888 0.478507 
3797.838704 0.476872 
3799.767520 0.475861 
3801.696336 0.476498 
3803.625152 0.475096 
3805.553968 0.474458 
3807.482784 0.475113 
3809.411600 0.473510 
3811.340416 0.472745 
3813.269232 0.471280 
3815.198048 0.471669 
3817.126864 0.471662 
3819.055680 0.470288 
3820.984496 0.471380 
3822.913312 0.471077 
3824.842128 0.470323 
3826.770944 0.470452 
3828.699760 0.469630 
3830.628576 0.469154 
3832.557392 0.468503 
3834.486208 0.467800 
3836.415024 0.467722 
3838.343840 0.468750 
3840.272656 0.468060 
3842.201472 0.467944 
3844.130288 0.467586 
3846.059104 0.466661 
3847.987920 0.465061 
3849.916736 0.463957 
3851.845552 0.464022 
3853.774368 0.466173 
3855.703184 0.465412 
3857.632000 0.464114 
3859.560816 0.463475 
3861.489632 0.463041 
3863.418448 0.462327 
3865.347264 0.462205 
3867.276080 0.460880 
3869.204896 0.461199 
3871.133712 0.460999 
3873.062528 0.459789 
3874.991344 0.459585 
3876.920160 0.458472 
3878.848976 0.458033 
3880.777792 0.457720 
3882.706608 0.456850 
3884.635424 0.456489 
3886.564240 0.456516 
3888.493056 0.454966 
3890.421872 0.455040 
3892.350688 0.454545 
3894.279504 0.453541 
3896.208320 0.452532 
3898.137136 0.452002 
3900.065952 0.451817 
3901.994768 0.451544 
3903.923584 0.451677 
3905.852400 0.451103 
3907.781216 0.450291 
3909.710032 0.449627 
3911.638848 0.449009 
3913.567664 0.448285 
3915.496480 0.447845 
3917.425296 0.447717 
3919.354112 0.447412 
3921.282928 0.446993 
3923.211744 0.446553 
3925.140560 0.446315 
3927.069376 0.445539 
3928.998192 0.445004 
3930.927008 0.444537 
3932.855824 0.444227 
3934.784640 0.443782 
3936.713456 0.443380 
3938.642272 0.443052 
3940.571088 0.442825 
3942.499904 0.442758 
3944.428720 0.442301 
3946.357536 0.441832 
3948.286352 0.441369 
3950.215168 0.440850 
3952.143984 0.440374 
3954.072800 0.440007 
3956.001616 0.439750 
3957.930432 0.439575 
3959.859248 0.439407 
3961.788064 0.439347 
3963.716880 0.439078 
3965.645696 0.438621 
3967.574512 0.438207 
3969.503328 0.437735 
3971.432144 0.437174 
3973.360960 0.436851 
3975.289776 0.436564 
3977.218592 0.436461 
3979.147408 0.436420 
3981.076224 0.436317 
3983.005040 0.436192 
3984.933856 0.435999 
3986.862672 0.435601 
3988.791488 0.435162 
3990.720304 0.434672 
3992.649120 0.434244 
3994.577936 0.433944 
3996.506752 0.433929 
3998.435568 0.433849 
4000.364384 0.433867 
